temperature energy magnetization specific_heat magnetic_susceptibility 
           4   -0.589118   0.0042975     0.000121363     0.000829546
        3.79   -0.631178   0.0020425     0.000123551      0.00115128
        3.58   -0.668622  0.00492625     0.000157694      0.00118024
        3.37   -0.717572    0.005455     0.000173314      0.00164107
        3.16    -0.78072     0.01142     0.000200464      0.00196298
        2.95   -0.856575   0.0105775     0.000286508      0.00287658
        2.74   -0.952282   0.0295237     0.000325042       0.0060026
        2.53    -1.07619   0.0785038     0.000497908       0.0104757
        2.32    -1.26255    0.323964     0.000919467       0.0172018
        2.11    -1.57805    0.769351     0.000936791      0.00497954
         1.9    -1.76716    0.896934     0.000692439      0.00186128
        1.69     -1.8822    0.958001     0.000400804     0.000543347
        1.48    -1.94716    0.983085     0.000212751     0.000172252
        1.27    -1.97927    0.993514     0.000138719      0.00010541
        1.06    -1.99451    0.998576     2.51178e-05     1.90696e-06
        0.85    -1.99903    0.999712     1.13582e-05     3.49835e-06
        0.64    -1.99996     0.99999     4.84375e-07      1.9375e-08
        0.43          -2           1               0               0
        0.22          -2           1               0               0
        0.01          -2           1               0               0
