temperature energy magnetization specific_heat magnetic_susceptibility 
           4   -0.595385  0.00345875     0.000113567     0.000926815
        3.79   -0.631542   0.0075525     0.000139213      0.00106721
        3.58   -0.667295     0.01077     0.000148862      0.00119933
        3.37   -0.719615   0.0086875     0.000181905      0.00157299
        3.16   -0.780988  0.00915375     0.000208046      0.00198646
        2.95    -0.86099      0.0104     0.000251493      0.00290724
        2.74   -0.946925   0.0346487     0.000299154      0.00470586
        2.53    -1.07583   0.0709563     0.000481832      0.00846645
        2.32      -1.253    0.240274      0.00082828       0.0211915
        2.11    -1.57924    0.772256     0.000861351      0.00358206
         1.9    -1.77108    0.906451     0.000660463       0.0010732
        1.69    -1.88301    0.957653     0.000404677     0.000540308
        1.48    -1.94884    0.984015       0.0002023     0.000139359
        1.27     -1.9814    0.995002     6.42259e-05     7.71407e-06
        1.06    -1.99458    0.998581      2.8449e-05     2.26824e-06
        0.85    -1.99918    0.999791     5.93785e-06     3.40278e-07
        0.64    -1.99996    0.999989     5.60165e-07     2.66577e-08
        0.43          -2           1               0               0
        0.22          -2           1               0               0
        0.01          -2           1               0               0
