temperature energy magnetization specific_heat magnetic_susceptibility 
               4       -0.574625        0.213125        0.179537        0.389556
             3.8        -0.59375        0.224594        0.198303        0.438422
             3.6       -0.643437        0.248188        0.265817        0.557858
             3.4       -0.707812        0.268875        0.263914        0.632816
             3.2       -0.776125        0.298031        0.411066        0.913606
               3       -0.852688        0.349969        0.490265         1.15157
             2.8          -0.979        0.425281        0.696591          1.4459
             2.6        -1.13288        0.546531        0.968644         1.75658
             2.4        -1.35213        0.681656         1.14367         1.64276
             2.2          -1.565        0.820219         1.00777        0.908068
               2         -1.7655        0.918687        0.654031        0.314675
             1.8        -1.86512        0.960438        0.352395       0.0747654
             1.6        -1.92619        0.978906        0.287914       0.0443506
             1.4        -1.96612        0.990688        0.152581        0.018982
             1.2        -1.98812        0.996906       0.0673437      0.00589578
               1         -1.9975        0.999375          0.0196        0.001225
             0.8         -1.9995        0.999875        0.006225      0.00031125
             0.6              -2               1               0               0
             0.4              -2               1               0               0
             0.2              -2               1               0               0
