temperature energy magnetization specific_heat magnetic_susceptibility 
               4       -0.556133        0.101991        0.164785        0.371669
             3.8       -0.596725        0.108773        0.200393        0.441749
             3.6       -0.638419        0.118875         0.22698        0.567813
             3.4       -0.686514        0.129209        0.265153        0.707169
             3.2       -0.745814        0.146737        0.321489        0.950913
               3       -0.821464        0.173828        0.417262         1.37201
             2.8         -0.9076        0.213359        0.541756         2.10543
             2.6        -1.03933         0.30394        0.810474          3.8917
             2.4        -1.24434         0.49967         1.37925         6.14242
             2.2        -1.55339        0.800477         1.25911         2.08382
               2        -1.74302        0.909858        0.758987        0.402482
             1.8        -1.85818        0.956709        0.443022        0.111662
             1.6        -1.92748        0.979392        0.264552       0.0440587
             1.4        -1.96807        0.991383         0.14626       0.0170736
             1.2        -1.98897        0.997116       0.0641791      0.00566265
               1        -1.99713        0.999262        0.023684       0.0016214
             0.8         -1.9996        0.999898       0.0052475     0.000275945
             0.6        -1.99999        0.999998     0.000208271     7.81016e-06
             0.4              -2               1               0               0
             0.2              -2               1               0               0
